,Mass,Radius,Temperature,Density,Luminosity,Hydrogen,Opacity,Convection,Pressure,Velocity
0,0.0,0.0,14510000.0,90.07385768999998,0.0,0.732,1.4454145397146498,1.0,1.7941199318911686e+17,1.2087525152161382e-10
1,1.2720819528179121e+23,6960000.0,14510000.0,90.07385768999998,2.1980770023579838e+24,0.732,1.4454145397146498,0.0,1.7941199318911686e+17,1.2087525152161382e-10
2,1.0176655068275897e+24,13920000.0,14509992.925672779,90.07384647666069,1.758459471387425e+25,0.732,1.4454161934878451,0.0,1.794118833820101e+17,1.2087493182959428e-10
3,3.434620026215116e+24,20880000.0,14509985.851327578,90.07378013468937,5.93478587146649e+25,0.732,1.4454172074333393,0.0,1.794116637678359e+17,1.2087453815812626e-10
4,8.141317172795096e+24,27840000.0,14509971.70268693,90.07370257921295,1.4067588280436113e+26,0.732,1.4454198751516039,0.0,1.7941133434691882e+17,1.208738248013752e-10
5,1.590099800723283e+25,34800000.0,14509957.554007685,90.07356989534068,2.7475623101011334e+26,0.732,1.4454219030517828,0.0,1.7941089511964336e+17,1.2087303746972987e-10
6,2.7476897545027727e+25,41760000.0,14509936.3311102,90.07342599770534,4.747758596044296e+26,0.732,1.445425584719107,0.0,1.7941034608677546e+17,1.2087193046733387e-10
7,4.363224307008969e+25,48720000.0,14509915.108148996,90.0732269721447,7.539209591316659e+26,0.732,1.445428626582205,0.0,1.7940968724903418e+17,1.20870749498259e-10
8,6.513025244822702e+25,55680000.0,14509886.81109232,90.07301673246488,1.1253767964543005e+27,0.732,1.445433322201524,0.0,1.7940891860762714e+17,1.208692488807583e-10
9,9.27341324408034e+25,62640000.0,14509858.513942333,90.07275136556473,1.6023275568083885e+27,0.732,1.445437378034713,0.0,1.794080401636081e+17,1.2086767430845612e-10
10,1.2720707701815727e+26,69600000.0,14509823.142865207,90.07247478409131,2.1979561858929424e+27,0.732,1.4454430876078974,0.0,1.7940705191862634e+17,1.208657801178441e-10
11,1.693122656734021e+26,76560000.0,14509787.771660704,90.07214307633687,2.925444231963999e+27,0.732,1.4454481574172844,0.0,1.7940595387407027e+17,1.208638119879689e-10
12,2.198128617357233e+26,83520000.0,14509745.32674296,90.07180015345699,3.797971687982597e+27,0.732,1.4454548809451384,0.0,1.7940474603203094e+17,1.2086152427768878e-10
13,2.794720106844016e+26,90480000.0,14509702.881659305,90.07140210546984,4.828716833756271e+27,0.732,1.4454609647357648,0.0,1.794034283942314e+17,1.2085916264734343e-10
14,3.490528384619168e+26,97440000.0,14509653.363121863,90.0709928417071,6.030856078161936e+27,0.732,1.445468702218029,0.0,1.7940200096320432e+17,1.2085648148228452e-10
15,4.2931844978829056e+26,104400000.0,14509603.844375508,90.07052845424525,7.417563801342795e+27,0.732,1.4454757999938712,0.0,1.794004637410074e+17,1.2085372642001623e-10
16,5.2103192647390947e+26,111360000.0,14509547.252480375,90.07005285025964,9.002012197023249e+27,0.732,1.445484551429221,0.0,1.79398816730615e+17,1.2085065187650877e-10
17,6.249563257343004e+26,118320000.0,14509490.660328856,90.06952212421751,1.0797371114768365e+28,0.732,1.4454926631931908,0.0,1.7939705993441946e+17,1.208475034623036e-10
18,7.418546785025687e+26,125280000.0,14509426.99537911,90.06898018080554,1.2816807902408754e+28,0.732,1.4455024285792373,0.0,1.7939519335583674e+17,1.2084403562811272e-10
19,8.724899877447368e+26,132240000.0,14509363.33012104,90.06838311721405,1.5073487248368923e+28,0.732,1.4455115543331831,0.0,1.793932169975938e+17,1.2084049395338965e-10
20,1.0176252267716761e+27,139200000.0,14509292.592460833,90.06777483530881,1.7580571024220855e+28,0.732,1.4455223336664758,0.0,1.7939113086354822e+17,1.208366329277089e-10
21,1.1780233375551544e+27,146160000.0,14509221.854435893,90.06711143533545,2.0351218127086716e+28,0.732,1.4455324734111832,0.0,1.7938893495676154e+17,1.2083269809531238e-10
22,1.354447229039125e+27,153120000.0,14509144.044450428,90.06643681600666,2.339858432234072e+28,0.732,1.4455442666872096,0.0,1.793866292815329e+17,1.2082844398875574e-10
23,1.547659775456647e+27,160080000.0,14509066.234039357,90.06570708095553,2.6735822086090817e+28,0.732,1.4455554204224024,0.0,1.7938421384125843e+17,1.2082411611294815e-10
24,1.758423814640375e+27,167040000.0,14508981.352154888,90.06496612540955,3.0376080448049183e+28,0.732,1.4455682276355892,0.0,1.793816886406788e+17,1.208194690475415e-10
25,1.987502146340536e+27,174000000.0,14508896.469779473,90.06417005672147,3.433250483409673e+28,0.732,1.4455803953599307,0.0,1.7937905368352464e+17,1.208147482539938e-10
26,2.2356575305344444e+27,180960000.0,14508804.516463293,90.06336276630152,3.8618236909343363e+28,0.732,1.4455942165036446,0.0,1.793763089749781e+17,1.2080970836316624e-10
27,2.503652685745735e+27,187920000.0,14508712.562586356,90.06250036555407,4.32464144207783e+28,0.732,1.4456073982147388,0.0,1.7937345451910445e+17,1.208045947889484e-10
28,2.7922502873527153e+27,194880000.0,14508613.538346777,90.0616267417402,4.823017104054204e+28,0.732,1.4456222332812887,0.0,1.7937049032152714e+17,1.2079916221752077e-10
29,3.1022129659090675e+27,201840000.0,14508514.513472168,90.06069801064784,5.358263620866461e+28,0.732,1.4456364289756807,0.0,1.7936741638664595e+17,1.2079365601109145e-10
30,3.4343033054508346e+27,208800000.0,14508408.418858511,90.0597580550571,5.9316934976572e+28,0.732,1.4456522779563201,0.0,1.7936423272052576e+17,1.20787830915266e-10
31,3.78928384181882e+27,215760000.0,14508302.323531087,90.0587629954713,6.544618784991368e+28,0.732,1.4456674876294984,0.0,1.7936093932790083e+17,1.2078193223646067e-10
32,4.1679170609639876e+27,222720000.0,14508189.15913367,90.05775670985777,7.198351063232701e+28,0.732,1.4456843505144237,0.0,1.7935753621527728e+17,1.2077571478380852e-10
33,4.570965397271806e+27,229680000.0,14508075.993939286,90.05669532376702,7.894201426835447e+28,0.732,1.445700574160822,0.0,1.7935402338772387e+17,1.2076942380382736e-10
34,4.999191231865825e+27,236640000.0,14507955.760389406,90.05562271002204,8.633480468749045e+28,0.732,1.4457184509391765,0.0,1.7935040085218794e+17,1.2076281417327595e-10
35,5.453356890934225e+27,243600000.0,14507835.525954891,90.05449499955208,9.41749826471877e+28,0.732,1.4457356885521748,0.0,1.793466686140727e+17,1.207561310746704e-10
36,5.934224644031318e+27,250560000.0,14507708.223924806,90.05335605970426,1.0247564357721164e+29,0.732,1.4457545792120503,0.0,1.7934282668076662e+17,1.2074912945648937e-10
37,6.442556702406592e+27,257520000.0,14507580.920917956,90.05216202711809,1.11249877422735e+29,0.732,1.4457728307839761,0.0,1.793388750580073e+17,1.2074205443314798e-10
38,6.979115217303845e+27,264480000.0,14507446.551120868,90.05095676333352,1.2051076848902532e+29,0.732,1.4457927353124136,0.0,1.793348137536243e+17,1.2073466102893475e-10
39,7.54466227829303e+27,271440000.0,14507312.180250423,90.0496964110316,1.3027139528462577e+29,0.732,1.445812000834544,0.0,1.793306427736896e+17,1.2072719428606855e-10
40,8.139959911566747e+27,278400000.0,14507170.743440455,90.04842482561395,1.4054483036640263e+29,0.732,1.4458329192175383,0.0,1.7932636212647376e+17,1.2071940930873243e-10
41,8.765770078275188e+27,285360000.0,14507029.305456081,90.04709815613435,1.5134414018280928e+29,0.732,1.4458531986801026,0.0,1.793219718183831e+17,1.2071155106285876e-10
42,9.422854672819681e+27,292320000.0,14506880.802428264,90.04576025152492,1.6268238491932113e+29,0.732,1.4458751309025986,0.0,1.7931747185812902e+17,1.207033747366047e-10
43,1.0111975521191078e+28,299280000.0,14506732.298120532,90.04436726754341,1.7457261834177922e+29,0.732,1.4458964242947796,0.0,1.7931286225245222e+17,1.2069512521553052e-10
44,1.0833894379260023e+28,306240000.0,14506576.72971078,90.04296304632152,1.870278876422406e+29,0.732,1.4459193703406807,0.0,1.793081430105049e+17,1.2068655777584219e-10
45,1.1589372931119123e+28,313200000.0,14506421.159911143,90.04150375065171,2.0006123328239697e+29,0.732,1.4459416776506173,0.0,1.7930331413936195e+17,1.2067791721864645e-10
46,1.2379172787369612e+28,320160000.0,14506258.52699623,90.04003321553459,2.1368568883986966e+29,0.732,1.4459656375027832,0.0,1.7929837564861635e+17,1.206689589122676e-10
47,1.320405548346767e+28,327120000.0,14506095.892577006,90.03850761112817,2.2791428085169798e+29,0.732,1.445988958717571,0.0,1.7929332754567725e+17,1.2065992756928298e-10
48,1.4064782478007118e+28,334080000.0,14505926.196074545,90.03697076497134,2.427600286611082e+29,0.732,1.446013932357824,0.0,1.7928816984057814e+17,1.2065057865419867e-10
49,1.496211515107028e+28,341040000.0,14505756.497948889,90.03537885491815,2.5823594426106568e+29,0.732,1.4460382674635182,0.0,1.7928290254106243e+17,1.2064115678699218e-10
50,1.589681480250633e+28,348000000.0,14505579.738817306,90.03377570071542,2.7435503214154823e+29,0.732,1.4460642548726401,0.0,1.792775256576041e+17,1.2063141753240884e-10
51,1.686964265028708e+28,354960000.0,14505402.977939187,90.0321174882437,2.9113028913315494e+29,0.732,1.4460896038542606,0.0,1.7927203919828067e+17,1.2062160541376167e-10
52,1.7881359828780614e+28,361920000.0,14505219.157177696,90.0304480291275,3.0857470425491552e+29,0.732,1.446116605012,0.0,1.7926644317400656e+17,1.2061147610008636e-10
53,1.8932727387112419e+28,368880000.0,14505035.334541872,90.02872351760402,3.267012585579475e+29,0.732,1.4461429678535302,0.0,1.7926073759319334e+17,1.206012740139728e-10
54,2.002450628743387e+28,375840000.0,14504844.45319045,90.02698775684549,3.455229249738332e+29,0.732,1.446170982738603,0.0,1.7925492246719574e+17,1.20590754932792e-10
55,2.115745740328917e+28,382800000.0,14504653.569832444,90.02519694977576,3.6505266815831774e+29,0.732,1.446198359422993,0.0,1.792489978047594e+17,1.2058016317435771e-10
56,2.233234151787825e+28,389760000.0,14504455.628971796,90.02339489078499,3.853034443402858e+29,0.732,1.4462273880130851,0.0,1.792429636176791e+17,1.2056925462841436e-10
57,2.354991932242994e+28,396720000.0,14504257.685967866,90.02153779181346,4.0628820116549016e+29,0.732,1.4462557785222563,0.0,1.7923681991503456e+17,1.2055827350395377e-10
58,2.4810951414458903e+28,403680000.0,14504052.686719408,90.01966943813962,4.2801987754616274e+29,0.732,1.4462858207940261,0.0,1.792305667090606e+17,1.2054697580712436e-10
59,2.611619829614545e+28,410640000.0,14503847.685186518,90.01774605104988,4.5051140350476316e+29,0.732,1.4463152251088718,0.0,1.7922420400917088e+17,1.2053560563405666e-10
60,2.7466420372586074e+28,417600000.0,14503635.628712341,90.01581140638154,4.7377570002425766e+29,0.732,1.4463462810379544,0.0,1.792177318280401e+17,1.2052391911132722e-10
61,2.886237795018042e+28,424560000.0,14503423.569808133,90.01382173509651,4.9782567889187715e+29,0.732,1.446376699138343,0.0,1.7921115017541578e+17,1.205121602181726e-10
62,3.030483123487486e+28,431520000.0,14503204.45731097,90.01182080326183,5.226742425500985e+29,0.732,1.4464087686993512,0.0,1.7920445906441245e+17,1.2050008520561364e-10
63,3.17945403305572e+28,438480000.0,14502985.342233732,90.00976485184395,5.483342839404005e+29,0.732,1.4464402005641306,0.0,1.7919765850511142e+17,1.2048793793196747e-10
64,3.333226523729281e+28,445440000.0,14502759.174956936,90.00769763681085,5.748186863549829e+29,0.732,1.4464732837306595,0.0,1.7919074851106688e+17,1.2047547477670809e-10
65,3.4918765849727505e+28,452400000.0,14502533.00494557,90.00557540946241,6.021403232805071e+29,0.732,1.446505729337658,0.0,1.7918372909269392e+17,1.2046293947321551e-10
66,3.655480195531578e+28,459360000.0,14502299.784173071,90.00344191533878,6.3031205825058965e+29,0.732,1.4465398260822866,0.0,1.7917660026398618e+17,1.2045008853341717e-10
67,3.824113323273242e+28,466320000.0,14502066.560507065,90.00125341640205,6.59346744689515e+29,0.732,1.4465732854083182,0.0,1.7916936203569248e+17,1.204371655617454e-10
68,3.997851925009228e+28,473280000.0,14501826.287563339,89.99905364743613,6.892572257655389e+29,0.732,1.4466083957026146,0.0,1.791620144222458e+17,1.2042392720657417e-10
69,4.176771946337114e+28,480240000.0,14501586.011562727,89.99679888139363,7.200563342345588e+29,0.732,1.4466428687234791,0.0,1.7915455743472858e+17,1.2041061693938567e-10
70,4.360949321461657e+28,487200000.0,14501338.687812766,89.99453284197408,7.517568922942669e+29,0.732,1.446678992538001,0.0,1.7914699108801302e+17,1.2039699154898413e-10
71,4.550459973037854e+28,494160000.0,14501091.360838098,89.99221181344888,7.843717114277611e+29,0.732,1.4467144792284912,0.0,1.791393153935152e+17,1.2038329436990763e-10
72,4.745379811991085e+28,501120000.0,14500836.98768737,89.98987950810516,8.179135922585859e+29,0.732,1.4467516165327918,0.0,1.7913153036654627e+17,1.2036928233536594e-10
73,4.945784737361208e+28,508080000.0,14500582.611139676,89.98749222186099,8.523953243942698e+29,0.732,1.4467881168666934,0.0,1.7912363601885584e+17,1.2035519863896708e-10
74,5.15175063612169e+28,515040000.0,14500321.190034088,89.98509365526357,8.878296862822915e+29,0.732,1.4468262676293238,0.0,1.7911563236619395e+17,1.2034080036229282e-10
75,5.363353383024811e+28,522000000.0,14500059.765354836,89.98264011620526,9.242294450535277e+29,0.732,1.4468637815794203,0.0,1.7910751942064365e+17,1.203263305540441e-10
76,5.580668840419721e+28,528960000.0,14499791.2977807,89.98017529316591,9.61607356379184e+29,0.732,1.4469029457679334,0.0,1.7909929719839366e+17,1.2031154644813207e-10
77,5.803772858098807e+28,535920000.0,14499522.826451767,89.97765550633952,9.999761643141349e+29,0.732,1.4469414733060093,0.0,1.7909096571186045e+17,1.2029669094438182e-10
78,6.032741273114623e+28,542880000.0,14499247.313935755,89.97512443181158,1.0393486011548615e+30,0.732,1.4469816508869635,0.0,1.7908252497767126e+17,1.20281521432982e-10
79,6.2676499096274765e+28,549840000.0,14498971.797479382,89.97253840240468,1.0797373872826644e+30,0.732,1.4470211919838092,0.0,1.790739750085758e+17,1.2026628066092278e-10
80,6.508574578721179e+28,556800000.0,14498689.241588492,89.96994108148331,1.121155231022649e+30,0.732,1.4470623829227707,0.0,1.7906531582163974e+17,1.2025072617860855e-10
81,6.75559107825191e+28,563760000.0,14498406.681567246,89.96728881482538,1.1636148284867928e+30,0.732,1.447102937548184,0.0,1.7905654742994602e+17,1.2023510057624463e-10
82,7.008775192662715e+28,570720000.0,14498117.08390876,89.96462525274787,1.2071288634340184e+30,0.732,1.4471451418097319,0.0,1.7904766985099846e+17,1.2021916156837937e-10
83,7.268202692833734e+28,577680000.0,14497827.481925493,89.96190675431049,1.251710007113098e+30,0.732,1.4471867099325246,0.0,1.7903868309821315e+17,1.2020315158449298e-10
84,7.533949335895376e+28,584640000.0,14497530.844146935,89.9591769564565,1.2973709181238552e+30,0.732,1.4472299274802545,0.0,1.7902958718953187e+17,1.2018682850719645e-10
85,7.806090865079965e+28,591600000.0,14497234.20184474,89.95639223185368,1.3441242422598848e+30,0.732,1.4472725090682532,0.0,1.7902038213870384e+17,1.20170434601314e-10
86,8.084703009533534e+28,598560000.0,14496930.525633832,89.9535962037457,1.3919826123709274e+30,0.732,1.4473167398647822,0.0,1.7901106796410864e+17,1.2015372792142746e-10
87,8.369861484168963e+28,605520000.0,14496626.844696008,89.95074525873414,1.440958648205384e+30,0.732,1.4473603348848343,0.0,1.790016446798284e+17,1.2013695056378474e-10
88,8.661641989476325e+28,612480000.0,14496316.131780624,89.94788300603761,1.4910649562739072e+30,0.732,1.4474055788918037,0.0,1.789921123046804e+17,1.2011986075883574e-10
89,8.960120211377574e+28,619440000.0,14496005.413930625,89.94496584651702,1.542314129691685e+30,0.732,1.44745018730978,0.0,1.789824708530796e+17,1.2010270043034186e-10
90,9.265371821035378e+28,626400000.0,14495687.666078752,89.94203737504078,1.5947187480432948e+30,0.732,1.44749644448786,0.0,1.7897272034428074e+17,1.200852279885079e-10
91,9.577472474709438e+28,633360000.0,14495369.913080145,89.93905400705428,1.6482913772247368e+30,0.732,1.447542066268661,0.0,1.789628607930316e+17,1.200676851807091e-10
92,9.896497813563732e+28,640320000.0,14495045.132099833,89.93605932275084,1.7030445693095916e+30,0.732,1.4475893365775545,0.0,1.7895289221902406e+17,1.2004983060078072e-10
93,1.0222523463524535e+29,647280000.0,14494720.345756251,89.93300975248509,1.7589908623907792e+30,0.732,1.447635971685112,0.0,1.7894281463733875e+17,1.2003190581582296e-10
94,1.0555625035086e+29,654240000.0,14494388.533495571,89.92994886145097,1.8161427804480682e+30,0.732,1.4476842550835602,0.0,1.7893262806810445e+17,1.2001366960716603e-10
95,1.0895878123169968e+29,661200000.0,14494056.715650667,89.92683309523677,1.8745128331895357e+30,0.732,1.447731903480845,0.0,1.7892233252673443e+17,1.1999536335775698e-10
96,1.1243358306929797e+29,668160000.0,14493717.873997657,89.92370600371278,1.9341135159204714e+30,0.732,1.4477811999266295,0.0,1.7891192803379427e+17,1.1997674604027427e-10
97,1.1598141149612042e+29,675120000.0,14493379.026535057,89.92052404802516,1.9949573093845163e+30,0.732,1.4478298615756509,0.0,1.789014146050298e+17,1.1995805884964474e-10
98,1.1960302198358463e+29,682080000.0,14493033.157417677,89.91733076239683,2.0570566796340071e+30,0.732,1.4478801710256008,0.0,1.7889079226144317e+17,1.1993906095373648e-10
99,1.2329916984069643e+29,689040000.0,14492687.282260934,89.91408262385555,2.120424077870767e+30,0.732,1.4479298458874164,0.0,1.7888006101911267e+17,1.199199933556009e-10
100,1.2707061021205112e+29,696000000.0,14492334.387647016,89.91082315065346,2.18507194031794e+30,0.732,1.4479811682974115,0.0,1.7886922089947677e+17,1.1990061542212484e-10
101,1.309180980764897e+29,702960000.0,14491981.486759553,89.90750883602325,2.2510126880604042e+30,0.732,1.4480318563321286,0.0,1.788582719189461e+17,1.198811679606406e-10
102,1.3484238824508047e+29,709920000.0,14491621.568656752,89.90418318192333,2.3182587269181456e+30,0.732,1.4480841916571032,0.0,1.788472140993953e+17,1.198614105408716e-10
103,1.388442353597963e+29,716880000.0,14491261.644041818,89.90080269811435,2.3868224472862677e+30,0.732,1.4481358928238834,0.0,1.7883604745756723e+17,1.1984158377059876e-10
104,1.429243938914756e+29,723840000.0,14490894.704497555,89.89741086993831,2.4567162240099486e+30,0.732,1.4481892410178339,0.0,1.7882477201577238e+17,1.1982144742618668e-10
105,1.4708361813852147e+29,730800000.0,14490527.758198172,89.89396422400641,2.5279524162240225e+30,0.732,1.4482419552749,0.0,1.7881338779108586e+17,1.1980124191204555e-10
106,1.5132266222484141e+29,737760000.0,14490153.799299588,89.89050622872209,2.600543367229571e+30,0.732,1.4482963162908864,0.0,1.7880189480625373e+17,1.197807272149737e-10
107,1.5564228009856902e+29,744720000.0,14489779.833398499,89.88699342786923,2.674501404333044e+30,0.732,1.4483500435955237,0.0,1.7879029307868314e+17,1.1976014353220278e-10
108,1.6004322552998162e+29,751680000.0,14489398.857272398,89.88346927259093,2.749838838724533e+30,0.732,1.4484054173856769,0.0,1.7877858263155562e+17,1.1973925106474465e-10
109,1.6452625211024544e+29,758640000.0,14489017.87389201,89.87989032416563,2.826567965316407e+30,0.732,1.4484601576942429,0.0,1.7876676348261024e+17,1.1971828979885745e-10
110,1.6909211324931023e+29,765600000.0,14488629.882704804,89.87630001615457,2.904701062623317e+30,0.732,1.4485165442097685,0.0,1.7875483565546368e+17,1.1969702015353294e-10
111,1.7374156217467895e+29,772560000.0,14488241.88400714,89.87265492765212,2.9842503926003104e+30,0.732,1.4485722974776927,0.0,1.787427991681869e+17,1.196756819002739e-10
112,1.7847535192927833e+29,779520000.0,14487846.879964797,89.86899847431677,3.065228200524624e+30,0.732,1.4486296966688759,0.0,1.7873065404483146e+17,1.1965403567980544e-10
113,1.8329423537025397e+29,786480000.0,14487451.868151432,89.86528725337978,3.147646714833248e+30,0.732,1.4486864628506693,0.0,1.7871840030380003e+17,1.1963232104510538e-10
114,1.8819896516681612e+29,793440000.0,14487049.853499418,89.86156466227628,3.2315181470065494e+30,0.732,1.448744874666882,0.0,1.7870603796957885e+17,1.1961029886237254e-10
115,1.9319029379906097e+29,800400000.0,14486647.830811432,89.857787316695,3.316854691405259e+30,0.732,1.4488026537161396,0.0,1.7869356706090224e+17,1.195882084623034e-10
116,1.982689735557909e+29,807360000.0,14486238.807834651,89.85399859552756,3.4036685251559797e+30,0.732,1.4488620781058428,0.0,1.7868098760269075e+17,1.1956581094029702e-10
